0 5 1001 Iraqi
6 12 1002 police
13 15 1003 in
16 19 1004 the
20 28 1005 northern
29 33 1006 town
34 36 1007 of
37 42 1008 Mosul
43 46 1009 say
47 53 1010 gunmen
54 58 1011 have
59 65 1012 killed
66 67 1013 a
68 77 1014 cameraman
78 85 1015 working
86 89 1016 for
90 93 1017 the
94 104 1018 Associated
105 110 1019 Press
110 111 1020 .
112 118 2001 Police
119 122 2002 say
123 128 2003 Aswan
129 137 2004 Lutfalla
138 141 2005 was
142 148 2006 having
149 152 2007 his
153 156 2008 car
157 165 2009 repaired
166 170 2010 when
171 172 2011 a
173 182 2012 firefight
183 188 2013 broke
189 192 2014 out
193 199 2015 nearby
199 200 2016 .
202 204 3001 He
205 209 3002 went
210 212 3003 to
213 217 3004 film
218 221 3005 the
222 227 3006 clash
228 231 3007 and
232 235 3008 was
236 246 3009 apparently
247 259 3010 deliberately
260 264 3011 shot
265 267 3012 by
268 274 3013 gunmen
274 275 3014 .
276 284 4001 Lutfalla
285 287 4002 is
288 291 4003 the
292 298 4004 second
299 301 4005 AP
302 312 4006 Television
313 317 4007 News
318 327 4008 cameraman
328 330 4009 to
331 333 4010 be
334 340 4011 killed
341 343 4012 in
344 349 4013 Mosul
350 352 4014 in
353 356 4015 the
357 361 4016 last
362 365 4017 two
366 371 4018 years
371 372 4019 .
373 377 5001 Last
378 382 5002 week
382 383 5003 ,
384 385 5004 a
386 390 5005 U.S.
391 396 5006 press
397 405 5007 advocacy
406 411 5008 group
411 412 5009 ,
413 416 5010 The
417 426 5011 Committee
427 429 5012 to
430 437 5013 Protect
438 449 5014 Journalists
449 450 5015 ,
451 455 5016 said
456 458 5017 89
459 470 5018 journalists
471 475 5019 have
476 480 5020 been
481 487 5021 killed
488 490 5022 in
491 495 5023 Iraq
496 501 5024 since
502 505 5025 the
506 514 5026 U.S.-led
515 523 5027 invasion
524 526 5028 in
527 532 5029 March
533 537 5030 2003
537 538 5031 .
